# proton+proton-->proton+proton+JPSI 
# E=[4.966600:0.001000:9.999600] [GeV] , sigma [mbarn] 
#---------------------------- 
4.966600E+000 -8.537575E-021 
4.967600E+000 5.025549E-013 
4.968600E+000 2.008881E-012 
4.969600E+000 4.516971E-012 
4.970600E+000 8.024822E-012 
4.971600E+000 1.253043E-011 
4.972600E+000 1.803180E-011 
4.973600E+000 2.452694E-011 
4.974600E+000 3.201384E-011 
4.975600E+000 4.049052E-011 
4.976600E+000 4.995499E-011 
4.977600E+000 6.040526E-011 
4.978600E+000 7.183936E-011 
4.979600E+000 8.425529E-011 
4.980600E+000 9.765107E-011 
4.981600E+000 1.120247E-010 
4.982600E+000 1.273743E-010 
4.983600E+000 1.436978E-010 
4.984600E+000 1.609933E-010 
4.985600E+000 1.792588E-010 
4.986600E+000 1.984923E-010 
4.987600E+000 2.186919E-010 
4.988600E+000 2.398556E-010 
4.989600E+000 2.619815E-010 
4.990600E+000 2.850676E-010 
4.991600E+000 3.091119E-010 
4.992600E+000 3.341125E-010 
4.993600E+000 3.600675E-010 
4.994600E+000 3.869749E-010 
4.995600E+000 4.148328E-010 
4.996600E+000 4.436392E-010 
4.997600E+000 4.733922E-010 
4.998600E+000 5.040899E-010 
4.999600E+000 5.357303E-010 
5.000600E+000 5.683115E-010 
5.001600E+000 6.018315E-010 
5.002600E+000 6.362886E-010 
5.003600E+000 6.716806E-010 
5.004600E+000 7.080058E-010 
5.005600E+000 7.452621E-010 
5.006600E+000 7.834478E-010 
5.007600E+000 8.225608E-010 
5.008600E+000 8.625992E-010 
5.009600E+000 9.035612E-010 
5.010600E+000 9.454449E-010 
5.011600E+000 9.882483E-010 
5.012600E+000 1.031969E-009 
5.013600E+000 1.076607E-009 
5.014600E+000 1.122158E-009 
5.015600E+000 1.168621E-009 
5.016600E+000 1.215995E-009 
5.017600E+000 1.264277E-009 
5.018600E+000 1.313466E-009 
5.019600E+000 1.363559E-009 
5.020600E+000 1.414555E-009 
5.021600E+000 1.466451E-009 
5.022600E+000 1.519247E-009 
5.023600E+000 1.572940E-009 
5.024600E+000 1.627528E-009 
5.025600E+000 1.683010E-009 
5.026600E+000 1.739382E-009 
5.027600E+000 1.796645E-009 
5.028600E+000 1.854796E-009 
5.029600E+000 1.913832E-009 
5.030600E+000 1.973752E-009 
5.031600E+000 2.034555E-009 
5.032600E+000 2.096238E-009 
5.033600E+000 2.158799E-009 
5.034600E+000 2.222238E-009 
5.035600E+000 2.286551E-009 
5.036600E+000 2.351737E-009 
5.037600E+000 2.417794E-009 
5.038600E+000 2.484720E-009 
5.039600E+000 2.552514E-009 
5.040600E+000 2.621174E-009 
5.041600E+000 2.690698E-009 
5.042600E+000 2.761083E-009 
5.043600E+000 2.832329E-009 
5.044600E+000 2.904433E-009 
5.045600E+000 2.977393E-009 
5.046600E+000 3.051208E-009 
5.047600E+000 3.125877E-009 
5.048600E+000 3.201396E-009 
5.049600E+000 3.277765E-009 
5.050600E+000 3.354981E-009 
5.051600E+000 3.433042E-009 
5.052600E+000 3.511948E-009 
5.053600E+000 3.591696E-009 
5.054600E+000 3.672284E-009 
5.055600E+000 3.753710E-009 
5.056600E+000 3.835973E-009 
5.057600E+000 3.919071E-009 
5.058600E+000 4.003002E-009 
5.059600E+000 4.087765E-009 
5.060600E+000 4.173357E-009 
5.061600E+000 4.259777E-009 
5.062600E+000 4.347023E-009 
5.063600E+000 4.435093E-009 
5.064600E+000 4.523985E-009 
5.065600E+000 4.613698E-009 
5.066600E+000 4.704231E-009 
5.067600E+000 4.795580E-009 
5.068600E+000 4.887744E-009 
5.069600E+000 4.980723E-009 
5.070600E+000 5.074513E-009 
5.071600E+000 5.169113E-009 
5.072600E+000 5.264522E-009 
5.073600E+000 5.360737E-009 
5.074600E+000 5.457757E-009 
5.075600E+000 5.555580E-009 
5.076600E+000 5.654204E-009 
5.077600E+000 5.753629E-009 
5.078600E+000 5.853851E-009 
5.079600E+000 5.954869E-009 
5.080600E+000 6.056681E-009 
5.081600E+000 6.159287E-009 
5.082600E+000 6.262683E-009 
5.083600E+000 6.366868E-009 
5.084600E+000 6.471841E-009 
5.085600E+000 6.577600E-009 
5.086600E+000 6.684143E-009 
5.087600E+000 6.791468E-009 
5.088600E+000 6.899574E-009 
5.089600E+000 7.008459E-009 
5.090600E+000 7.118120E-009 
5.091600E+000 7.228558E-009 
5.092600E+000 7.339769E-009 
5.093600E+000 7.451752E-009 
5.094600E+000 7.564506E-009 
5.095600E+000 7.678028E-009 
5.096600E+000 7.792318E-009 
5.097600E+000 7.907372E-009 
5.098600E+000 8.023191E-009 
5.099600E+000 8.139771E-009 
5.100600E+000 8.257111E-009 
5.101600E+000 8.375210E-009 
5.102600E+000 8.494066E-009 
5.103600E+000 8.613677E-009 
5.104600E+000 8.734042E-009 
5.105600E+000 8.855158E-009 
5.106600E+000 8.977025E-009 
5.107600E+000 9.099640E-009 
5.108600E+000 9.223002E-009 
5.109600E+000 9.347109E-009 
5.110600E+000 9.471959E-009 
5.111600E+000 9.597552E-009 
5.112600E+000 9.723884E-009 
5.113600E+000 9.850955E-009 
5.114600E+000 9.978763E-009 
5.115600E+000 1.010731E-008 
5.116600E+000 1.023658E-008 
5.117600E+000 1.036659E-008 
5.118600E+000 1.049733E-008 
5.119600E+000 1.062880E-008 
5.120600E+000 1.076099E-008 
5.121600E+000 1.089391E-008 
5.122600E+000 1.102756E-008 
5.123600E+000 1.116192E-008 
5.124600E+000 1.129701E-008 
5.125600E+000 1.143281E-008 
5.126600E+000 1.156934E-008 
5.127600E+000 1.170657E-008 
5.128600E+000 1.184453E-008 
5.129600E+000 1.198319E-008 
5.130600E+000 1.212256E-008 
5.131600E+000 1.226265E-008 
5.132600E+000 1.240344E-008 
5.133600E+000 1.254494E-008 
5.134600E+000 1.268714E-008 
5.135600E+000 1.283004E-008 
5.136600E+000 1.297365E-008 
5.137600E+000 1.311795E-008 
5.138600E+000 1.326296E-008 
5.139600E+000 1.340866E-008 
5.140600E+000 1.355505E-008 
5.141600E+000 1.370214E-008 
5.142600E+000 1.384992E-008 
5.143600E+000 1.399838E-008 
5.144600E+000 1.414754E-008 
5.145600E+000 1.429738E-008 
5.146600E+000 1.444791E-008 
5.147600E+000 1.459912E-008 
5.148600E+000 1.475102E-008 
5.149600E+000 1.490359E-008 
5.150600E+000 1.505685E-008 
5.151600E+000 1.521078E-008 
5.152600E+000 1.536538E-008 
5.153600E+000 1.552067E-008 
5.154600E+000 1.567662E-008 
5.155600E+000 1.583324E-008 
5.156600E+000 1.599054E-008 
5.157600E+000 1.614850E-008 
5.158600E+000 1.630713E-008 
5.159600E+000 1.646642E-008 
5.160600E+000 1.662638E-008 
5.161600E+000 1.678700E-008 
5.162600E+000 1.694827E-008 
5.163600E+000 1.711021E-008 
5.164600E+000 1.727281E-008 
5.165600E+000 1.743606E-008 
5.166600E+000 1.759996E-008 
5.167600E+000 1.776452E-008 
5.168600E+000 1.792972E-008 
5.169600E+000 1.809558E-008 
5.170600E+000 1.826209E-008 
5.171600E+000 1.842924E-008 
5.172600E+000 1.859703E-008 
5.173600E+000 1.876547E-008 
5.174600E+000 1.893455E-008 
5.175600E+000 1.910428E-008 
5.176600E+000 1.927464E-008 
5.177600E+000 1.944563E-008 
5.178600E+000 1.961727E-008 
5.179600E+000 1.978954E-008 
5.180600E+000 1.996244E-008 
5.181600E+000 2.013597E-008 
5.182600E+000 2.031013E-008 
5.183600E+000 2.048492E-008 
5.184600E+000 2.066034E-008 
5.185600E+000 2.083638E-008 
5.186600E+000 2.101305E-008 
5.187600E+000 2.119034E-008 
5.188600E+000 2.136825E-008 
5.189600E+000 2.154678E-008 
5.190600E+000 2.172592E-008 
5.191600E+000 2.190569E-008 
5.192600E+000 2.208606E-008 
5.193600E+000 2.226706E-008 
5.194600E+000 2.244866E-008 
5.195600E+000 2.263087E-008 
5.196600E+000 2.281370E-008 
5.197600E+000 2.299713E-008 
5.198600E+000 2.318117E-008 
5.199600E+000 2.336581E-008 
5.200600E+000 2.355105E-008 
5.201600E+000 2.373690E-008 
5.202600E+000 2.392335E-008 
5.203600E+000 2.411039E-008 
5.204600E+000 2.429804E-008 
5.205600E+000 2.448628E-008 
5.206600E+000 2.467511E-008 
5.207600E+000 2.486454E-008 
5.208600E+000 2.505455E-008 
5.209600E+000 2.524516E-008 
5.210600E+000 2.543636E-008 
5.211600E+000 2.562815E-008 
5.212600E+000 2.582052E-008 
5.213600E+000 2.601347E-008 
5.214600E+000 2.620701E-008 
5.215600E+000 2.640113E-008 
5.216600E+000 2.659583E-008 
5.217600E+000 2.679111E-008 
5.218600E+000 2.698696E-008 
5.219600E+000 2.718339E-008 
5.220600E+000 2.738040E-008 
5.221600E+000 2.757798E-008 
5.222600E+000 2.777613E-008 
5.223600E+000 2.797485E-008 
5.224600E+000 2.817414E-008 
5.225600E+000 2.837400E-008 
5.226600E+000 2.857442E-008 
5.227600E+000 2.877541E-008 
5.228600E+000 2.897696E-008 
5.229600E+000 2.917908E-008 
5.230600E+000 2.938175E-008 
5.231600E+000 2.958498E-008 
5.232600E+000 2.978877E-008 
5.233600E+000 2.999312E-008 
5.234600E+000 3.019802E-008 
5.235600E+000 3.040348E-008 
5.236600E+000 3.060948E-008 
5.237600E+000 3.081604E-008 
5.238600E+000 3.102315E-008 
5.239600E+000 3.123080E-008 
5.240600E+000 3.143901E-008 
5.241600E+000 3.164775E-008 
5.242600E+000 3.185705E-008 
5.243600E+000 3.206688E-008 
5.244600E+000 3.227725E-008 
5.245600E+000 3.248817E-008 
5.246600E+000 3.269962E-008 
5.247600E+000 3.291161E-008 
5.248600E+000 3.312414E-008 
5.249600E+000 3.333720E-008 
5.250600E+000 3.355079E-008 
5.251600E+000 3.376491E-008 
5.252600E+000 3.397957E-008 
5.253600E+000 3.419475E-008 
5.254600E+000 3.441046E-008 
5.255600E+000 3.462670E-008 
5.256600E+000 3.484347E-008 
5.257600E+000 3.506075E-008 
5.258600E+000 3.527856E-008 
5.259600E+000 3.549689E-008 
5.260600E+000 3.571574E-008 
5.261600E+000 3.593511E-008 
5.262600E+000 3.615499E-008 
5.263600E+000 3.637539E-008 
5.264600E+000 3.659630E-008 
5.265600E+000 3.681773E-008 
5.266600E+000 3.703967E-008 
5.267600E+000 3.726212E-008 
5.268600E+000 3.748508E-008 
5.269600E+000 3.770854E-008 
5.270600E+000 3.793252E-008 
5.271600E+000 3.815699E-008 
5.272600E+000 3.838197E-008 
5.273600E+000 3.860746E-008 
5.274600E+000 3.883344E-008 
5.275600E+000 3.905993E-008 
5.276600E+000 3.928691E-008 
5.277600E+000 3.951439E-008 
5.278600E+000 3.974237E-008 
5.279600E+000 3.997084E-008 
5.280600E+000 4.019980E-008 
5.281600E+000 4.042926E-008 
5.282600E+000 4.065920E-008 
5.283600E+000 4.088964E-008 
5.284600E+000 4.112057E-008 
5.285600E+000 4.135198E-008 
5.286600E+000 4.158387E-008 
5.287600E+000 4.181626E-008 
5.288600E+000 4.204912E-008 
5.289600E+000 4.228247E-008 
5.290600E+000 4.251630E-008 
5.291600E+000 4.275060E-008 
5.292600E+000 4.298539E-008 
5.293600E+000 4.322065E-008 
5.294600E+000 4.345639E-008 
5.295600E+000 4.369260E-008 
5.296600E+000 4.392928E-008 
5.297600E+000 4.416644E-008 
5.298600E+000 4.440406E-008 
5.299600E+000 4.464216E-008 
5.300600E+000 4.488072E-008 
5.301600E+000 4.511975E-008 
5.302600E+000 4.535925E-008 
5.303600E+000 4.559921E-008 
5.304600E+000 4.583963E-008 
5.305600E+000 4.608052E-008 
5.306600E+000 4.632186E-008 
5.307600E+000 4.656367E-008 
5.308600E+000 4.680593E-008 
5.309600E+000 4.704865E-008 
5.310600E+000 4.729183E-008 
5.311600E+000 4.753546E-008 
5.312600E+000 4.777954E-008 
5.313600E+000 4.802407E-008 
5.314600E+000 4.826906E-008 
5.315600E+000 4.851449E-008 
5.316600E+000 4.876037E-008 
5.317600E+000 4.900670E-008 
5.318600E+000 4.925348E-008 
5.319600E+000 4.950070E-008 
5.320600E+000 4.974836E-008 
5.321600E+000 4.999647E-008 
5.322600E+000 5.024502E-008 
5.323600E+000 5.049400E-008 
5.324600E+000 5.074343E-008 
5.325600E+000 5.099329E-008 
5.326600E+000 5.124359E-008 
5.327600E+000 5.149432E-008 
5.328600E+000 5.174549E-008 
5.329600E+000 5.199709E-008 
5.330600E+000 5.224912E-008 
5.331600E+000 5.250158E-008 
5.332600E+000 5.275447E-008 
5.333600E+000 5.300779E-008 
5.334600E+000 5.326153E-008 
5.335600E+000 5.351570E-008 
5.336600E+000 5.377030E-008 
5.337600E+000 5.402531E-008 
5.338600E+000 5.428075E-008 
5.339600E+000 5.453661E-008 
5.340600E+000 5.479289E-008 
5.341600E+000 5.504959E-008 
5.342600E+000 5.530670E-008 
5.343600E+000 5.556423E-008 
5.344600E+000 5.582218E-008 
5.345600E+000 5.608054E-008 
5.346600E+000 5.633931E-008 
5.347600E+000 5.659849E-008 
5.348600E+000 5.685809E-008 
5.349600E+000 5.711809E-008 
5.350600E+000 5.737850E-008 
5.351600E+000 5.763932E-008 
5.352600E+000 5.790054E-008 
5.353600E+000 5.816217E-008 
5.354600E+000 5.842420E-008 
5.355600E+000 5.868663E-008 
5.356600E+000 5.894946E-008 
5.357600E+000 5.921270E-008 
5.358600E+000 5.947633E-008 
5.359600E+000 5.974036E-008 
5.360600E+000 6.000478E-008 
5.361600E+000 6.026960E-008 
5.362600E+000 6.053482E-008 
5.363600E+000 6.080043E-008 
5.364600E+000 6.106643E-008 
5.365600E+000 6.133282E-008 
5.366600E+000 6.159960E-008 
5.367600E+000 6.186677E-008 
5.368600E+000 6.213433E-008 
5.369600E+000 6.240227E-008 
5.370600E+000 6.267060E-008 
5.371600E+000 6.293931E-008 
5.372600E+000 6.320841E-008 
5.373600E+000 6.347788E-008 
5.374600E+000 6.374774E-008 
5.375600E+000 6.401798E-008 
5.376600E+000 6.428860E-008 
5.377600E+000 6.455959E-008 
5.378600E+000 6.483096E-008 
5.379600E+000 6.510270E-008 
5.380600E+000 6.537482E-008 
5.381600E+000 6.564732E-008 
5.382600E+000 6.592018E-008 
5.383600E+000 6.619341E-008 
5.384600E+000 6.646702E-008 
5.385600E+000 6.674099E-008 
5.386600E+000 6.701533E-008 
5.387600E+000 6.729004E-008 
5.388600E+000 6.756521E-008 
5.389600E+000 6.784093E-008 
5.390600E+000 6.811720E-008 
5.391600E+000 6.839402E-008 
5.392600E+000 6.867138E-008 
5.393600E+000 6.894930E-008 
5.394600E+000 6.922776E-008 
5.395600E+000 6.950677E-008 
5.396600E+000 6.978632E-008 
5.397600E+000 7.006641E-008 
5.398600E+000 7.034704E-008 
5.399600E+000 7.062821E-008 
5.400600E+000 7.090991E-008 
5.401600E+000 7.119216E-008 
5.402600E+000 7.147493E-008 
5.403600E+000 7.175824E-008 
5.404600E+000 7.204209E-008 
5.405600E+000 7.232646E-008 
5.406600E+000 7.261136E-008 
5.407600E+000 7.289679E-008 
5.408600E+000 7.318275E-008 
5.409600E+000 7.346923E-008 
5.410600E+000 7.375623E-008 
5.411600E+000 7.404376E-008 
5.412600E+000 7.433181E-008 
5.413600E+000 7.462038E-008 
5.414600E+000 7.490947E-008 
5.415600E+000 7.519907E-008 
5.416600E+000 7.548919E-008 
5.417600E+000 7.577982E-008 
5.418600E+000 7.607097E-008 
5.419600E+000 7.636263E-008 
5.420600E+000 7.665480E-008 
5.421600E+000 7.694748E-008 
5.422600E+000 7.724066E-008 
5.423600E+000 7.753436E-008 
5.424600E+000 7.782855E-008 
5.425600E+000 7.812325E-008 
5.426600E+000 7.841846E-008 
5.427600E+000 7.871416E-008 
5.428600E+000 7.901036E-008 
5.429600E+000 7.930707E-008 
5.430600E+000 7.960427E-008 
5.431600E+000 7.990196E-008 
5.432600E+000 8.020015E-008 
5.433600E+000 8.049898E-008 
5.434600E+000 8.079861E-008 
5.435600E+000 8.109902E-008 
5.436600E+000 8.140022E-008 
5.437600E+000 8.170221E-008 
5.438600E+000 8.200498E-008 
5.439600E+000 8.230853E-008 
5.440600E+000 8.261286E-008 
5.441600E+000 8.291797E-008 
5.442600E+000 8.322386E-008 
5.443600E+000 8.353052E-008 
5.444600E+000 8.383796E-008 
5.445600E+000 8.414617E-008 
5.446600E+000 8.445514E-008 
5.447600E+000 8.476489E-008 
5.448600E+000 8.507540E-008 
5.449600E+000 8.538668E-008 
5.450600E+000 8.569872E-008 
5.451600E+000 8.601152E-008 
5.452600E+000 8.632507E-008 
5.453600E+000 8.663939E-008 
5.454600E+000 8.695446E-008 
5.455600E+000 8.727029E-008 
5.456600E+000 8.758686E-008 
5.457600E+000 8.790419E-008 
5.458600E+000 8.822227E-008 
5.459600E+000 8.854109E-008 
5.460600E+000 8.886066E-008 
5.461600E+000 8.918098E-008 
5.462600E+000 8.950203E-008 
5.463600E+000 8.982382E-008 
5.464600E+000 9.014636E-008 
5.465600E+000 9.046963E-008 
5.466600E+000 9.079363E-008 
5.467600E+000 9.111837E-008 
5.468600E+000 9.144384E-008 
5.469600E+000 9.177004E-008 
5.470600E+000 9.209696E-008 
5.471600E+000 9.242462E-008 
5.472600E+000 9.275299E-008 
5.473600E+000 9.308209E-008 
5.474600E+000 9.341192E-008 
5.475600E+000 9.374246E-008 
5.476600E+000 9.407372E-008 
5.477600E+000 9.440569E-008 
5.478600E+000 9.473838E-008 
5.479600E+000 9.507178E-008 
5.480600E+000 9.540590E-008 
5.481600E+000 9.574072E-008 
5.482600E+000 9.607625E-008 
5.483600E+000 9.641249E-008 
5.484600E+000 9.674943E-008 
5.485600E+000 9.708707E-008 
5.486600E+000 9.742542E-008 
5.487600E+000 9.776446E-008 
5.488600E+000 9.810420E-008 
5.489600E+000 9.844464E-008 
5.490600E+000 9.878577E-008 
5.491600E+000 9.912760E-008 
5.492600E+000 9.947011E-008 
5.493600E+000 9.981332E-008 
5.494600E+000 1.001572E-007 
5.495600E+000 1.005018E-007 
5.496600E+000 1.008470E-007 
5.497600E+000 1.011930E-007 
5.498600E+000 1.015396E-007 
5.499600E+000 1.018869E-007 
5.500600E+000 1.022349E-007 
5.501600E+000 1.025836E-007 
5.502600E+000 1.029329E-007 
5.503600E+000 1.032829E-007 
5.504600E+000 1.036336E-007 
5.505600E+000 1.039849E-007 
5.506600E+000 1.043370E-007 
5.507600E+000 1.046896E-007 
5.508600E+000 1.050430E-007 
5.509600E+000 1.053970E-007 
5.510600E+000 1.057517E-007 
5.511600E+000 1.061070E-007 
5.512600E+000 1.064630E-007 
5.513600E+000 1.068196E-007 
5.514600E+000 1.071769E-007 
5.515600E+000 1.075349E-007 
5.516600E+000 1.078935E-007 
5.517600E+000 1.082528E-007 
5.518600E+000 1.086127E-007 
5.519600E+000 1.089732E-007 
5.520600E+000 1.093344E-007 
5.521600E+000 1.096963E-007 
5.522600E+000 1.100587E-007 
5.523600E+000 1.104219E-007 
5.524600E+000 1.107856E-007 
5.525600E+000 1.111500E-007 
5.526600E+000 1.115151E-007 
5.527600E+000 1.118807E-007 
5.528600E+000 1.122470E-007 
5.529600E+000 1.126140E-007 
5.530600E+000 1.129815E-007 
5.531600E+000 1.133497E-007 
5.532600E+000 1.137185E-007 
5.533600E+000 1.140880E-007 
5.534600E+000 1.144581E-007 
5.535600E+000 1.148287E-007 
5.536600E+000 1.152001E-007 
5.537600E+000 1.155720E-007 
5.538600E+000 1.159445E-007 
5.539600E+000 1.163177E-007 
5.540600E+000 1.166915E-007 
5.541600E+000 1.170658E-007 
5.542600E+000 1.174408E-007 
5.543600E+000 1.178164E-007 
5.544600E+000 1.181927E-007 
5.545600E+000 1.185695E-007 
5.546600E+000 1.189469E-007 
5.547600E+000 1.193249E-007 
5.548600E+000 1.197036E-007 
5.549600E+000 1.200828E-007 
5.550600E+000 1.204626E-007 
5.551600E+000 1.208430E-007 
5.552600E+000 1.212241E-007 
5.553600E+000 1.216057E-007 
5.554600E+000 1.219879E-007 
5.555600E+000 1.223707E-007 
5.556600E+000 1.227541E-007 
5.557600E+000 1.231380E-007 
5.558600E+000 1.235226E-007 
5.559600E+000 1.239077E-007 
5.560600E+000 1.242935E-007 
5.561600E+000 1.246798E-007 
5.562600E+000 1.250667E-007 
5.563600E+000 1.254543E-007 
5.564600E+000 1.258428E-007 
5.565600E+000 1.262321E-007 
5.566600E+000 1.266223E-007 
5.567600E+000 1.270134E-007 
5.568600E+000 1.274054E-007 
5.569600E+000 1.277982E-007 
5.570600E+000 1.281918E-007 
5.571600E+000 1.285863E-007 
5.572600E+000 1.289817E-007 
5.573600E+000 1.293779E-007 
5.574600E+000 1.297750E-007 
5.575600E+000 1.301729E-007 
5.576600E+000 1.305717E-007 
5.577600E+000 1.309713E-007 
5.578600E+000 1.313718E-007 
5.579600E+000 1.317731E-007 
5.580600E+000 1.321752E-007 
5.581600E+000 1.325782E-007 
5.582600E+000 1.329820E-007 
5.583600E+000 1.333866E-007 
5.584600E+000 1.337921E-007 
5.585600E+000 1.341984E-007 
5.586600E+000 1.346055E-007 
5.587600E+000 1.350134E-007 
5.588600E+000 1.354222E-007 
5.589600E+000 1.358318E-007 
5.590600E+000 1.362422E-007 
5.591600E+000 1.366535E-007 
5.592600E+000 1.370655E-007 
5.593600E+000 1.374784E-007 
5.594600E+000 1.378920E-007 
5.595600E+000 1.383065E-007 
5.596600E+000 1.387218E-007 
5.597600E+000 1.391379E-007 
5.598600E+000 1.395548E-007 
5.599600E+000 1.399725E-007 
5.600600E+000 1.403910E-007 
5.601600E+000 1.408103E-007 
5.602600E+000 1.412304E-007 
5.603600E+000 1.416513E-007 
5.604600E+000 1.420730E-007 
5.605600E+000 1.424955E-007 
5.606600E+000 1.429188E-007 
5.607600E+000 1.433429E-007 
5.608600E+000 1.437677E-007 
5.609600E+000 1.441933E-007 
5.610600E+000 1.446197E-007 
5.611600E+000 1.450469E-007 
5.612600E+000 1.454749E-007 
5.613600E+000 1.459037E-007 
5.614600E+000 1.463332E-007 
5.615600E+000 1.467635E-007 
5.616600E+000 1.471946E-007 
5.617600E+000 1.476264E-007 
5.618600E+000 1.480590E-007 
5.619600E+000 1.484924E-007 
5.620600E+000 1.489265E-007 
5.621600E+000 1.493614E-007 
5.622600E+000 1.497971E-007 
5.623600E+000 1.502335E-007 
5.624600E+000 1.506707E-007 
5.625600E+000 1.511086E-007 
5.626600E+000 1.515473E-007 
5.627600E+000 1.519867E-007 
5.628600E+000 1.524269E-007 
5.629600E+000 1.528678E-007 
5.630600E+000 1.533095E-007 
5.631600E+000 1.537519E-007 
5.632600E+000 1.541951E-007 
5.633600E+000 1.546390E-007 
5.634600E+000 1.550836E-007 
5.635600E+000 1.555290E-007 
5.636600E+000 1.559751E-007 
5.637600E+000 1.564220E-007 
5.638600E+000 1.568696E-007 
5.639600E+000 1.573179E-007 
5.640600E+000 1.577669E-007 
5.641600E+000 1.582167E-007 
5.642600E+000 1.586672E-007 
5.643600E+000 1.591184E-007 
5.644600E+000 1.595703E-007 
5.645600E+000 1.600230E-007 
5.646600E+000 1.604763E-007 
5.647600E+000 1.609304E-007 
5.648600E+000 1.613852E-007 
5.649600E+000 1.618407E-007 
5.650600E+000 1.622970E-007 
